tau,Re_zeta,Re_zeta_st
-3.530972829,0.8856232512,12.20661730
-3.528545266,0.9304608332,12.21334535
-3.521385334,0.9782543716,12.23291001
-3.509667031,1.028763480,12.26401976
-3.493551988,1.081616614,12.30491968
-3.473190749,1.136293620,12.35339973
-3.448723871,1.192109812,12.40678905
-3.420282890,1.248202893,12.46194249
-3.387991163,1.303524217,12.51522579
-3.351964610,1.356836099,12.56250541
-3.312312366,1.406716969,12.59914994
-3.269137362,1.451576246,12.62004973
-3.222536839,1.489680708,12.61966196
-3.172602807,1.519193973,12.59208832
-3.119422460,1.538230299,12.53119155
-3.063078540,1.544923388,12.43075677
-3.003649674,1.537510105,12.28470103
-2.941210669,1.514428053,12.08733214
-2.875832791,1.474424801,11.83365446
-2.807584004,1.416675215,11.51971421
-2.736529197,1.340901941,11.14297225
-2.662730391,1.247492607,10.70268592
-2.586246919,1.137605955,10.20027614
-2.507135604,1.013257948,9.639650100
-2.425450910,0.8773780921,9.027446442
-2.341245090,0.7338259438,8.373167069
-2.254568312,0.5873581807,7.689161128
-2.165468789,0.4435378463,6.990430831
-2.073992886,0.3085795635,6.294237449
-1.980185226,0.1891276874,5.619498617
-1.884088785,0.09196853397,4.985984865
-1.785744986,0.02368286118,4.413343050
-1.685193775,-0.009749515896,3.919995634
-1.582473703,-0.003375059405,3.521985311
-1.477621999,0.04630204933,3.231851767
-1.370674633,0.1409114713,3.057638639
-1.261666380,0.2798643847,3.002131229
-1.150630882,0.4600924693,3.062417295
-1.037600697,0.6759129490,3.229843166
-0.9226073556,0.9190509527,3.490405870
-0.8056814054,1.178843569,3.825581045
-0.6868524580,1.442639610,4.213539854
-0.5661492309,1.696395481,4.630661308
-0.4435995874,1.925451318,5.053205698
-0.3192305744,2.115453610,5.458986633
-0.1930684574,2.253372434,5.828869262
-0.06513875429,2.328544650,6.147934211
0.06453373347,2.333661099,6.406181466
0.1959248910,2.265607822,6.598703013
0.3290112617,2.126070393,6.725321106
0.4637700211,1.921818175,6.789761079
0.6001789510,1.664602261,6.798492199
0.7382164161,1.370627183,6.759416027
0.8778613414,1.059590957,6.680599813
1.019093190,0.7533285506,6.569237902
1.161891945,0.4741371913,6.430977759
1.306238085,0.2429038173,6.269676381
1.452112572,0.07719078821,6.087570328
1.599496830,-0.01053933951,5.885764673
1.748372729,-0.01437003139,5.664889571
1.898722569,0.06413197565,5.425750898
2.050529067,0.2156374059,5.169819970
2.203775339,0.4235305046,4.899463557
2.358444888,0.6651681641,4.617896818
2.514521592,0.9138676955,4.328928075
2.671989689,1.141481881,4.036631858
2.830833767,1.321337827,3.745114341
2.991038751,1.431249378,3.458510431
3.152589893,1.456271671,3.181275121
3.315472763,1.390859490,2.918719462
3.479673235,1.240123884,2.677622734
3.645177480,1.019955478,2.466663823
3.811971957,0.7558941679,2.296390532
3.980043403,0.4807642568,2.178507565
4.149378825,0.2312474220,2.124412534
4.319965492,0.04371506379,2.143119599
4.491790926,-0.05023332931,2.238933939
4.664842896,-0.02799768154,2.409415065
4.839109412,0.1205791571,2.644232424
5.014578713,0.3910536214,2.925431279
5.191239265,0.7638913672,3.229383195
5.369079755,1.205843597,3.530329127
5.548089080,1.673159491,3.805009288
5.728256345,2.116356611,4.037513630
5.909570856,2.486037103,4.223282497
6.092022117,2.739051959,4.371214953
6.275599819,2.844210275,4.503127860
6.460293841,2.786728962,4.650313221
6.646094240,2.570731805,4.847564322
6.832991251,2.219330077,5.125642388
7.020975278,1.772128041,5.503587342
7.210036891,1.280357638,5.982424489
7.400166826,0.8002077456,6.541634126
7.591355971,0.3852194089,7.139265906
7.783595374,0.07881714251,7.715902256
7.976876230,-0.09190322372,8.201960496
8.171189880,-0.1201290828,8.527231273
8.366527809,-0.02031252614,8.631200933
8.562881642,0.1741157018,8.472645749
8.760243138,0.4160939431,8.037184207
8.958604189,0.6526283237,7.341836439
9.157956818,0.8337048549,6.436050818
9.358293173,0.9210062811,5.399022692
9.559605526,0.8949683320,4.333411928
9.761886268,0.7588955095,3.355792547
9.965127910,0.5392728835,2.584411402
10.16932308,0.2820053052,2.125164260
10.37446450,0.04500069137,2.057134151
10.58054504,-0.1118226146,2.419507785
10.78755764,-0.1375014087,3.202032800
10.99549536,-8.457011702e-05,4.341198864
11.20435137,0.3060648991,5.723847679
11.41411892,0.7572011752,7.198884166
11.62479138,1.302178447,8.596288955
11.83636220,1.869448045,9.751012990
12.04882494,2.378123496,10.52797583
12.26217324,2.751367714,10.84369841
12.47640082,2.929823169,10.68035495
12.69150151,2.882657993,10.08926656
12.90746922,2.614094365,9.182846028
13.12429793,2.163996821,8.116281287
13.34198172,1.602121774,7.062263313
13.56051476,1.016791788,6.183339622
13.77989126,0.4998450833,5.606739006
14.00010554,0.1305070412,5.405781202
14.22115200,-0.03883784713,5.590530075
14.44302508,0.007777064014,6.108590011
14.66571934,0.2469479417,6.855297922
14.88922938,0.6203389845,7.691308291
15.11354987,1.045859088,8.464795491
15.33867556,1.433564100,9.035136319
15.56460128,1.703252444,9.294857831
15.79132189,1.800270351,9.186765993
16.01883235,1.706284725,8.713550806
16.24712766,1.442705176,7.937926541
16.47620291,1.065886066,6.972630661
16.70605321,0.6549372331,5.961340630
16.93667378,0.2945704423,5.053502482
17.16805985,0.05655923466,4.377705013
17.40020676,-0.01618044839,4.019007333
17.63310985,0.08069439513,4.005112325
17.86676456,0.3117941679,4.304413039
18.10116637,0.6099328951,4.836122891
18.33631082,0.8916800756,5.489713530
18.57219348,1.077259103,6.148636550
18.80881000,1.110381978,6.712507260
19.04615608,0.9734116974,7.112814377
19.28422744,0.6940872916,7.319444875
19.52301989,0.3417990622,7.338083503
19.76252925,0.01371279235,7.200924264
20.00275143,-0.1865892126,6.954398560
20.24368234,-0.1734007996,6.647542477
20.48531798,0.09936000462,6.323479730
20.72765436,0.6241312981,6.014918409
20.97068755,1.337081257,5.743212662
21.21441368,2.128087120,5.519829370
21.45882889,2.861667343,5.348997960
21.70392939,3.404596308,5.230613208
21.94971141,3.654189379,5.162738738
22.19617124,3.560839748,5.143132891
22.44330520,3.139479708,5.169190956
22.69110965,2.467037535,5.235871653
22.93958099,1.666150243,5.331808755
23.18871567,0.8786366547,5.434859670
23.43851015,0.2347493498,5.509380592
23.68896096,-0.1746354613,5.507879410
23.94006464,-0.3162984300,5.378844287
24.19181779,-0.2190362745,5.080435764
24.44421701,0.03694600014,4.596990381
24.69725898,0.3429605879,3.953043134
24.95094039,0.5913068350,3.218994725
25.20525795,0.7037737966,2.504248383
25.46020843,0.6518040964,1.937317513
25.71578863,0.4629973208,1.636853081
25.97199536,0.2121245775,1.681100542
26.22882548,-0.001099675098,2.084554892
26.48627588,-0.08164008007,2.788979394
26.74434347,0.03184703312,3.672021680
27.00302522,0.3466914772,4.571775676
27.26231809,0.8105504956,5.321412537
27.52221909,1.322573416,5.785636456
27.78272527,1.758992388,5.890608380
28.04383368,2.006649684,5.640752034
28.30554143,1.995484665,5.118746421
28.56784564,1.720876894,4.468299828
28.83074345,1.249120531,3.862563352
29.09423204,0.7036509088,3.464054135
29.35830863,0.2348494781,3.384413067
29.62297043,-0.01908166013,3.653602984
29.88821471,0.03012257579,4.207425609
30.15403874,0.3947826851,4.898885438
30.42043984,1.004613650,5.533141216
30.68741533,1.721999188,5.918869693
30.95496257,2.375859374,5.923030626
31.22307895,2.805534446,5.513577915
31.49176187,2.903060262,4.776981370
31.76100875,2.642291799,3.904177261
32.03081705,2.086634473,3.147676349
32.30118424,1.372853066,2.760965206
32.57210783,0.6750116139,2.936236252
32.84358532,0.1582145728,3.756447006
33.11561426,-0.06516033285,5.173154782
33.38819222,0.03543621371,7.014382099
33.66131677,0.4024602581,9.019339803
33.93498553,0.9085947816,10.89109848
34.20919612,1.394365456,12.35518634
34.48394618,1.714152353,13.21163408
34.75923340,1.777198808,13.36979355
35.03505544,1.571640655,12.85893881
35.31141003,1.164586078,11.81286126
35.58829488,0.6784459363,10.43274855
35.86570775,0.2509284497,8.938314161
36.14364640,-0.008824561119,7.520610638
36.42210861,-0.05417530104,6.309549543
36.70109219,0.08583371407,5.364325600
36.98059496,0.3184926958,4.686960508
37.26061475,0.5210903340,4.250917428
37.54114943,0.5856269885,4.031552142
37.82219687,0.4600587185,4.025328045
38.10375496,0.1721540466,4.250213549
38.38582162,-0.1728657844,4.728108268
38.66839476,-0.4215957945,5.457849765
38.95147234,-0.4206039569,6.391158887
39.23505231,-0.06891958075,7.422533588
39.51913265,0.6418762797,8.398647399
39.80371135,1.613616190,9.145812229
40.08878642,2.659658196,9.508201896
40.37435589,3.551389180,9.386433937
40.66041779,4.080277123,8.766036778
40.94697019,4.117219580,7.727672214
41.23401115,3.651063961,6.434986506
41.52153877,2.794004297,5.101091669
41.80955113,1.751433802,3.940353673
42.09804636,0.7647439583,3.117246529
42.38702259,0.04406799445,2.706690177
42.67647796,-0.2887061118,2.678672121
42.96641063,-0.2293678692,2.913406763
43.25681878,0.1154549533,3.243340135
43.54770059,0.5686809777,3.508553078
43.83905427,0.9433175073,3.606764210
44.13087802,1.103375291,3.520893174
44.42317008,1.005394182,3.315631980
44.71592869,0.7073410720,3.106181501
45.00915210,0.3425825993,3.012268485
45.30283858,0.06839352568,3.114773637
45.59698642,0.007088868448,3.429615171
45.89159389,0.2003940747,3.905870551
46.18665932,0.5931367934,4.446144037
46.48218101,1.052194906,4.940306976
46.77815731,1.414273819,5.300701986
47.07458654,1.545765039,5.487657484
47.37146707,1.393310872,5.517682437
47.66879726,1.006531056,5.451931603
47.96657550,0.5238571151,5.368573550
48.26480016,0.1254043607,5.328432284
48.56346966,-0.03120733105,5.346902652
48.86258240,0.1305159171,5.384545216
49.16213682,0.5742966328,5.362808353
49.46213133,1.158985797,5.201226966
49.76256441,1.684863933,4.862081580
50.06343449,1.963378255,4.382928283
50.36474005,1.886337386,3.880209078
50.66647956,1.469775291,3.518109327
50.96865152,0.8556867489,3.451539576
51.27125443,0.2691093962,3.763981962
51.57428679,-0.05626774770,4.424495977
51.87774714,0.04081470797,5.281848249
52.18163399,0.5894410958,6.100405321
52.48594588,1.469592214,6.627699403
52.79068138,2.445209205,6.672885162
53.09583904,3.237210858,6.171740970
53.40141743,3.612333373,5.217660775
53.70741513,3.457766973,4.047509840
54.01383074,2.816131645,2.983785176
54.32066284,1.868928338,2.347470704
54.62791005,0.8745108386,2.366140421
54.93557098,0.08249170124,3.105747195
55.24364427,-0.3454007607,4.449421930
55.55212854,-0.3806484395,6.132435775
55.86102245,-0.1245975159,7.823177149
56.17032465,0.2405661586,9.222811601
56.48003380,0.5268887536,10.14878742
56.79014857,0.6128801787,10.57347626
57.10066764,0.4856344718,10.60686189
57.41158970,0.2374986239,10.43379134
57.72291345,0.01973058297,10.23265916
58.03463759,-0.02753994205,10.10712583
58.34676083,0.1597095971,10.05481102
58.65928191,0.5364681243,9.981296437
58.97219955,0.9623152796,9.750984670
59.28551248,1.257536687,9.254179490
59.59921945,1.280201000,8.465199006
59.91331923,0.9932223997,7.469762130
60.22781056,0.4930110790,6.449974559
60.54269222,-0.01466401039,5.629524036
60.85796299,-0.2856076108,5.196428665
61.17362165,-0.1299910847,5.230884235
61.48966700,0.5079424879,5.666575485
61.80609783,1.515006271,6.303141308
62.12291296,2.635074570,6.868193283
62.44011119,3.549430736,7.107089373
62.75769135,3.983970567,6.866803515
63.07565227,3.804603390,6.142594261
63.39399279,3.065428722,5.071815905
63.71271175,1.991080437,3.880677340
64.03180801,0.8989051545,2.807142485
64.35128040,0.08920879002,2.029416066
64.67112782,-0.2560533180,1.623533551
64.99134912,-0.1288993674,1.559927879
65.31194318,0.3145897589,1.734094815
65.63290889,0.8244944559,2.015890707
65.95424514,1.159324912,2.297921238
66.27595082,1.180057500,2.525903058
66.59802485,0.8994605089,2.701611438
66.92046614,0.4683874367,2.860053504
67.24327359,0.1060552316,3.033517648
67.56644614,0.003734167579,3.221598978
67.88998272,0.2417349881,3.384171944
68.21388226,0.7538182457,3.462984522
68.53814370,1.353451812,3.421699642
68.86276600,1.810700773,3.282176704
69.18774810,1.947469567,3.134099908
69.51308898,1.711086542,3.107435984
69.83878759,1.195173661,3.316747680
70.16484291,0.5988323043,3.802623180
70.49125392,0.1413046442,4.499439305
70.81801961,-0.03151759990,5.248080573
71.14513896,0.09166575408,5.852455683
71.47261096,0.3857899065,6.159182396
71.80043463,0.6491436578,6.129024475
72.12860897,0.6998468169,5.870257891
72.45713299,0.4674349185,5.616810993
72.78600571,0.03837926468,5.653275052
73.11522616,-0.3673634286,6.208895566
73.44479336,-0.4827970272,7.357161105
73.77470635,-0.1097923204,8.960660192
74.10496417,0.7835341311,10.68883389
74.43556586,2.026662609,12.11072182
74.76651048,3.290880573,12.83428259
75.09779708,4.200459465,12.64155479
75.42942473,4.469196171,11.56650661
75.76139248,4.008790753,9.883190900
76.09369942,2.965315016,8.007671782
76.42634461,1.667998256,6.352133843
76.75932714,0.5095029227,5.187995982
77.09264610,-0.1955724009,4.569373753
77.42630058,-0.3185518730,4.342689756
77.76028967,0.05053465041,4.234429311
78.09461247,0.6557698473,3.980376655
78.42926810,1.189320830,3.445716494
78.76425566,1.417745555,2.689724405
79.09957426,1.268255044,1.949392232
79.43522303,0.8411580089,1.546722964
79.77120110,0.3473335696,1.754555001
80.10750759,0.002015634179,2.674114137
80.44414163,-0.07568083856,4.175143419
80.78110237,0.08793411679,5.925241148
81.11838895,0.3441481255,7.498080627
81.45600051,0.5047237863,8.516968136
81.79393621,0.4442954982,8.776408205
82.13219521,0.1725514628,8.296205547
82.47077666,-0.1599665596,7.293369850
82.80967974,-0.3279276771,6.091085675
83.14890360,-0.1405771028,5.005796971
83.48844743,0.4559566016,4.255575477
83.82831040,1.332897709,3.918058807
84.16849169,2.215191751,3.943458714
84.50899050,2.788831947,4.207275208
84.84980601,2.834702605,4.575162395
85.19093741,2.330050907,4.951764314
85.53238391,1.470362169,5.295771671
85.87414471,0.5978861586,5.601054334
86.21621901,0.06402880531,5.861197849
86.55860603,0.08312015907,6.043330600
86.90130499,0.6407712577,6.091058067
87.24431509,1.497860017,5.957641119
87.58763556,2.290279610,5.649602468
87.93126564,2.682711392,5.250924192
88.27520454,2.510460723,4.906375807
88.61945151,1.847916294,4.765380606
88.96400578,0.9738937774,4.911809933
89.30886659,0.2492330324,5.315800303
89.65403319,-0.03943953570,5.834760002
89.99950483,0.1988447511,6.267229091
90.34528077,0.8255586231,6.437686532
90.69136025,1.539923047,6.275080815
91.03774254,2.015542371,5.849080251
91.38442690,2.044151978,5.344729521
91.73141260,1.622030277,4.981897625
92.07869891,0.9417508331,4.911232142
92.42628511,0.2958017963,5.133033119
92.77417047,-0.06110507046,5.481193252
93.12235427,-0.02611458706,5.689104528
93.47083580,0.3138176805,5.516311609
93.81961435,0.7356701523,4.880986992
94.16868921,0.9974258337,3.932764386
94.51805967,0.9600524871,3.022178721
94.86772503,0.6542279966,2.569179684
95.21768460,0.2591458748,2.881995863
95.56793767,0.004369965660,4.004617877
95.91848357,0.04438973969,5.662791793
96.26932159,0.3702252470,7.338618477
96.62045105,0.8054072356,8.450738542
96.97187128,1.092475372,8.573089833
97.32358159,1.030368992,7.607448154
97.67558130,0.5951358975,5.839849719
98.02786975,-0.01930597449,3.853495903
98.38044627,-0.4678350863,2.326040572
98.73331018,-0.4045601135,1.786414685
99.08646083,0.3489821381,2.425343419
99.43989755,1.696605425,4.033907837
99.79361969,3.275775035,6.092185825
100.1476266,4.584941161,7.967828099
100.5019176,5.178743408,9.141105215
100.8564921,4.847223850,9.368088811
101.2113494,3.700327305,8.727060058
101.5664889,2.120321152,7.546130262
101.9219099,0.6036267031,6.256525246
102.2776118,-0.4372722299,5.237141546
102.6335940,-0.8245787766,4.707637366
102.9898558,-0.6549662798,4.698401793
103.3463966,-0.2173289214,5.091185181
103.7032158,0.1660985012,5.697966077
104.0603128,0.2962298760,6.336782661
104.4176869,0.1770839741,6.873804792
104.7753375,-0.01456871681,7.224916109
105.1332641,-0.04799206148,7.334757480
105.4914659,0.2196029069,7.162356989
105.8499425,0.7532190582,6.692933980
106.2086931,1.349278250,5.971034293
106.5677172,1.738929127,5.127479409
106.9270142,1.731266959,4.368516565
107.2865834,1.320791104,3.914975476
107.6464244,0.7009170706,3.910988080
108.0065364,0.1733200142,4.345824320
108.3669190,-0.002866148038,5.033006541
108.7275714,0.2547464962,5.666624048
109.0884932,0.8047605046,5.938244175
109.4496837,1.349804816,5.667305662
109.8111425,1.588330818,4.887749209
110.1728688,1.374938318,3.848777929
110.5348621,0.8064756416,2.922737050
110.8971218,0.1860844781,2.454642367
111.2596475,-0.1219548694,2.617906372
111.6224384,0.1226225746,3.343320905
111.9854941,0.9033104192,4.357921472
112.3488139,1.936070763,5.318240400
112.7123974,2.791447851,5.974073068
113.0762439,3.094312245,6.281020898
113.4403530,2.705499054,6.404582221
113.8047240,1.795714181,6.613762106
114.1693563,0.7728601029,7.118864086
114.5342496,0.09500496186,7.936559665
114.8994031,0.05759166468,8.851761888
115.2648164,0.6569433251,9.498472751
115.6304889,1.595514431,9.524380069
115.9964201,2.425443677,8.763146008
116.3626094,2.759831302,7.332147452
116.7290563,2.449115455,5.605173359
117.0957603,1.638768821,4.066526515
117.4627209,0.6845250443,3.110138892
117.8299374,-0.02795819509,2.876840193
118.1974094,-0.2663565934,3.207603959
118.5651364,-0.04717119566,3.735137364
118.9331179,0.3993847840,4.067734293
119.3013532,0.7695452316,3.973967068
119.6698420,0.8523907058,3.478862482
120.0385836,0.6330835232,2.829753801
120.4075776,0.2805189441,2.356478349
120.7768235,0.03133336037,2.301065875
121.1463207,0.03922665986,2.702618507
121.5160688,0.2773885447,3.391559839
121.8860672,0.5520148322,4.091486692
122.2563154,0.6222366631,4.573626849
122.6268130,0.3601726237,4.782975512
122.9975594,-0.1416714475,4.868956177
123.3685541,-0.5839696454,5.101577455
123.7397967,-0.5995000889,5.713988171
124.1112866,0.04820088935,6.753295875
124.4830234,1.310251665,8.020287349
124.8550066,2.829802051,9.134071296
125.2272356,4.075254618,9.693178734
125.5997100,4.572991219,9.455570961
125.9724294,4.128570552,8.452240540
126.3453931,2.925907179,6.984335102
126.7186008,1.451352391,5.510465067
127.0920520,0.2757835629,4.479002801
127.4657462,-0.2010041582,4.178135939
127.8396829,0.08002719562,4.660042380
128.2138616,0.8340156868,5.756622563
128.5882819,1.592480898,7.162859951
128.9629433,1.942467905,8.539463400
129.3378454,1.722668802,9.589561238
129.7129876,1.080327061,10.09116504
130.0883696,0.3673567285,9.900357937
130.4639908,-0.06195829145,8.957385951
130.8398507,-0.04027855336,7.316547546
131.2159491,0.3367120320,5.188543892
131.5922852,0.7833551177,2.954979021
131.9688589,0.9999527489,1.113264418
132.3456694,0.8501057944,0.1425948470
132.7227165,0.4393623487,0.3306199051
133.0999997,0.05177490647,1.636004081
133.4775185,-0.01867553354,3.660718311
133.8552725,0.3545685503,5.764296845
134.2332612,1.046225991,7.288435294
134.6114841,1.737528671,7.804143132
134.9899410,2.086728150,7.273528404
135.3686312,1.917049565,6.048291217
135.7475544,1.315923655,4.698603704
136.1267102,0.5877752956,3.747991398
136.5060980,0.08472872632,3.440232491
136.8857175,0.009598954724,3.652749653
137.2655682,0.3035896560,3.998709304
137.6456498,0.6856665626,4.063173614
138.0259617,0.8255783815,3.649108669
138.4065036,0.5548626811,2.904330818
138.7872750,-0.005946201396,2.262248297
139.1682755,-0.4837289620,2.224241762
139.5495047,-0.4436773065,3.091531138
139.9309621,0.3623533463,4.781080682
140.3126474,1.824845693,6.821447128
140.6945601,3.482665400,8.538295016
141.0766998,4.714608495,9.345745740
141.4590662,5.025721433,9.004862445
141.8416587,4.284238156,7.724468135
142.2244769,2.787237210,6.057822814
142.6075206,1.120365038,4.650969957
142.9907892,-0.1168701667,3.969262037
143.3742823,-0.5803381131,4.130392080
143.7579996,-0.3109874176,4.908797232
144.1419406,0.3327757599,5.887392490
144.5261050,0.8929703655,6.666858780
144.9104923,1.056721726,7.028960617
145.2951021,0.7970117213,6.986792568
145.6799341,0.3427106132,6.717343219
146.0649878,0.008951127887,6.429210708
146.4502629,-0.004796638939,6.244726126
146.8357589,0.2708623962,6.158929721
